time,seconds_elapsed,relativeAltitude,pressure
1686388680528650000,-0.50335009765625,0,1016.6951751708984
1686388681533849900,0.501849853515625,0,1016.6950988769531
1686388682539018000,1.50701806640625,0,1016.6950225830078
1686388683544230000,2.51222998046875,0.0052852630615234375,1016.6940307617188
1686388684549452000,3.5174521484375,0.015855789184570312,1016.6932678222656
1686388684901288000,3.869287841796875,0.015855789184570312,1016.6932678222656
1686388685973567000,4.94156689453125,0,1016.6949462890625
1686388687045834000,6.013833984375,-0.05813026428222656,1016.7022705078125
1686388688118059800,7.086059814453125,-0.13739967346191406,1016.7117309570312
1686388689190281000,8.158281005859376,-0.221954345703125,1016.7218017578125
1686388690262479000,9.23047900390625,-0.3012237548828125,1016.7310333251953
1686388691334666000,10.302666015625,-0.38577842712402344,1016.7414093017578
1686388692406810000,11.37481005859375,-0.38577842712402344,1016.7416381835938
1686388693478996000,12.446995849609374,-0.38577842712402344,1016.7416381835938
1686388694551219000,13.519218994140624,-0.3804931640625,1016.7407989501953
1686388695623383000,14.591383056640625,-0.3804931640625,1016.7407989501953
1686388696695594000,15.663593994140625,-0.3963470458984375,1016.7427062988281
1686388697767808000,16.73580810546875,-0.40691566467285156,1016.7443084716797
1686388698840004900,17.8080048828125,-0.4280548095703125,1016.746826171875
1686388699912192000,18.88019189453125,-0.44390869140625,1016.7485809326172
1686388700984430000,19.95243017578125,-0.47033119201660156,1016.751708984375
1686388702056669000,21.0246689453125,-0.48090171813964844,1016.7527770996094
1686388703128877800,22.0968779296875,-0.48618507385253906,1016.7538452148438
1686388704201102000,23.16910205078125,-0.5337467193603516,1016.7591094970703
1686388705273332000,24.24133203125,-0.5337467193603516,1016.7591094970703
1686388706345572900,25.31357275390625,-0.47033119201660156,1016.7517852783203
1686388707417823000,26.385822998046876,-0.31707763671875,1016.7329406738281
1686388708490152000,27.45815185546875,-0.10040664672851562,1016.7070770263672
1686388709562484000,28.53048388671875,0.19553184509277344,1016.671142578125
1686388710634774000,29.60277392578125,0.5443191528320312,1016.6291809082031
1686388711707062000,30.67506201171875,0.8613967895507812,1016.5911102294922
1686388712779355100,31.747355224609375,1.1361980438232422,1016.5584564208984
1686388713851671800,32.819671875,1.3845767974853516,1016.5283966064453
1686388714923953200,33.891953125,1.6276702880859375,1016.4986419677734
1686388715996178000,34.96417797851562,1.8707637786865234,1016.4695739746094
1686388717068406000,36.03640600585938,2.1561336517333984,1016.4350891113281
1686388718140659200,37.1086591796875,2.4415035247802734,1016.4008331298828
1686388719212876000,38.1808759765625,2.7163047790527344,1016.3674926757812
1686388720285085000,39.2530849609375,2.911836624145508,1016.343994140625
1686388721357304000,40.32530395507813,3.0756607055664062,1016.3248443603516
1686388722429515000,41.39751489257812,3.1972084045410156,1016.3096618652344
1686388723501693000,42.46969287109375,3.297616958618164,1016.2980651855469
1686388724573866000,43.54186596679688,3.3768863677978516,1016.2886047363281
1686388725646050000,44.614050048828126,3.4297313690185547,1016.2820434570312
1686388726718269000,45.68626904296875,3.4931468963623047,1016.2744903564453
1686388727790496000,46.75849609375,3.4931468963623047,1016.2744903564453
1686388728862734000,47.830734130859376,3.477293014526367,1016.2763214111328
1686388729934937000,48.90293701171875,3.4508705139160156,1016.279296875
1686388731007061000,49.97506103515625,3.4403018951416016,1016.2804412841797
1686388732079243000,51.04724291992188,3.435016632080078,1016.2814331054688
1686388733151438000,52.11943798828125,3.435016632080078,1016.2814331054688
1686388734223653000,53.191653076171875,3.435016632080078,1016.2814331054688
1686388735295915000,54.2639150390625,3.445585250854492,1016.2799072265625
1686388736368243000,55.33624291992187,3.456155776977539,1016.2788391113281
1686388737440612000,56.40861206054687,3.456155776977539,1016.2788391113281
1686388738512971800,57.4809716796875,3.4403018951416016,1016.2803649902344
1686388739585291000,58.553291015625,3.435016632080078,1016.2812805175781
1686388740657661000,59.625660888671874,3.4191627502441406,1016.2832641601562
1686388741729944800,60.69794482421875,3.4191627502441406,1016.2832641601562
1686388742802288000,61.7702880859375,3.4297313690185547,1016.2820434570312
1686388743874648000,62.84264794921875,3.435016632080078,1016.2810516357422
1686388744947030000,63.91503002929687,3.4508705139160156,1016.2791442871094
1686388746019396000,64.98739599609375,3.4614391326904297,1016.2778472900391
1686388747091734000,66.05973413085937,3.4614391326904297,1016.2778472900391
1686388748164089900,67.13208984375,3.456155776977539,1016.2790679931641
1686388749236425000,68.20442504882813,3.445585250854492,1016.2801361083984
1686388750308697900,69.27669775390625,3.4191627502441406,1016.2828826904297
1686388751380956000,70.34895581054687,3.403308868408203,1016.2848663330078
1686388752453212000,71.4212119140625,3.403308868408203,1016.2851715087891
1686388753525485000,72.49348510742188,3.3768863677978516,1016.2882232666016
1686388754597758000,73.56575805664062,3.371601104736328,1016.2889862060547
1686388755670041000,74.638041015625,3.3663158416748047,1016.2895965576172
1686388756742324000,75.71032397460938,3.3557472229003906,1016.2911224365234
1686388757814661000,76.7826611328125,3.350461959838867,1016.29150390625
1686388758886973000,77.85497290039062,3.3451786041259766,1016.2919616699219
1686388759959265000,78.92726513671874,3.3451786041259766,1016.2919616699219
1686388761031565800,79.99956591796875,3.3240394592285156,1016.2948608398438
1686388762103904000,81.07190405273437,3.3134708404541016,1016.2960052490234
1686388763176215800,82.1442158203125,3.3029003143310547,1016.2968444824219
1686388764248588000,83.21658813476563,3.2923316955566406,1016.2985229492188
1686388765320924200,84.28892407226563,3.2923316955566406,1016.2985229492188
1686388766393207000,85.36120703125,3.3029003143310547,1016.2969970703125
1686388767465512000,86.43351196289062,3.3029003143310547,1016.2969970703125
1686388768537765000,87.50576513671875,3.308185577392578,1016.29638671875
1686388769609977900,88.57797778320312,3.3346080780029297,1016.2934112548828
1686388770682239000,89.65023901367188,3.3346080780029297,1016.2931823730469
1686388771754513200,90.72251318359375,3.350461959838867,1016.2917327880859
1686388772826746000,91.79474609375,3.361032485961914,1016.2901306152344
1686388773898989000,92.86698901367187,3.3768863677978516,1016.2879943847656
1686388774971257000,93.93925708007812,3.382169723510742,1016.2879180908203
1686388776043527000,95.01152685546874,3.3768863677978516,1016.2879943847656
1686388777115829000,96.0838291015625,3.371601104736328,1016.2889862060547
1686388778188129000,97.15612890625,3.371601104736328,1016.2889862060547
1686388779260405000,98.22840502929688,3.371601104736328,1016.2889862060547
1686388780332637200,99.30063720703124,3.371601104736328,1016.2889862060547
1686388781404840000,100.37283984375,3.371601104736328,1016.2889862060547
1686388782477065000,101.44506494140624,3.382169723510742,1016.2877655029297
1686388783549288000,102.51728784179687,3.3980236053466797,1016.2856292724609
1686388784621569800,103.58956982421876,3.4085941314697266,1016.2845611572266
1686388785693824000,104.66182397460938,3.4508705139160156,1016.2791442871094
1686388786766090000,105.73409008789062,3.4931468963623047,1016.2746429443359
1686388787838324000,106.80632397460937,3.5037174224853516,1016.2732696533203
1686388788910508000,107.87850805664063,3.5037174224853516,1016.2732696533203
1686388789982767000,108.95076708984375,3.4825782775878906,1016.2757110595703
1686388791055012900,110.02301293945312,3.413877487182617,1016.2841033935547
1686388792127279000,111.09527905273437,3.2711925506591797,1016.3009643554688
1686388793199478000,112.16747802734375,3.0122451782226562,1016.3319396972656
1686388794271728000,113.23972802734374,2.6528892517089844,1016.3755798339844
1686388795344012000,114.31201196289062,2.277681350708008,1016.4207458496094
1686388796416277800,115.38427783203124,1.9130401611328125,1016.4646148681641
1686388797488542000,116.4565419921875,1.5219764709472656,1016.5117645263672
1686388798560792800,117.52879272460937,1.1309146881103516,1016.5590667724609
1686388799633025800,118.60102587890626,0.7504196166992188,1016.6047668457031
1686388800705314800,119.67331469726562,0.3804950714111328,1016.6492462158203
1686388801777631000,120.745630859375,0.021139144897460938,1016.6924285888672
1686388802849922800,121.8179228515625,-0.23252296447753906,1016.7230987548828
1686388803922182100,122.89018212890625,-0.3646392822265625,1016.7390441894531
1686388804994453000,123.96245288085937,-0.38577842712402344,1016.7416381835938
1686388806066782000,125.03478198242188,-0.3963470458984375,1016.7426300048828
1686388807139110100,126.10711010742187,-0.40691566467285156,1016.7436981201172
1686388808211427000,127.17942700195313,-0.41748619079589844,1016.7452239990234
1686388809283736800,128.25173681640624,-0.46504783630371094,1016.7513275146484
1686388810356046000,129.3240461425781,-0.5126094818115234,1016.7568206787109
1686388811428327200,130.3963271484375,-0.5496025085449219,1016.7611694335938
1686388812500612900,131.46861279296874,-0.5813102722167969,1016.7652130126953
1686388813572902000,132.54090185546875,-0.6183013916015625,1016.7696380615234
1686388814645170000,133.613169921875,-0.665863037109375,1016.7753601074219
1686388815717495800,134.68549584960937,-0.7028560638427734,1016.7795562744141
1686388816789829000,135.7578291015625,-0.7081413269042969,1016.7805480957031
1686388817862161000,136.83016088867188,-0.7557029724121094,1016.7861938476562
1686388818934502000,137.902501953125,-0.792694091796875,1016.7906188964844
1686388820006869000,138.97486889648437,-0.8402576446533203,1016.7963409423828
1686388821079243000,140.04724291992187,-0.8825340270996094,1016.8011474609375
1686388822151599900,141.11959985351564,-0.9829425811767578,1016.8132019042969
1686388823223879200,142.19187915039063,-0.9829425811767578,1016.8132019042969
1686388824296148000,143.26414794921874,-0.9565181732177734,1016.8102264404297
1686388825368401200,144.33640112304687,-0.8719654083251953,1016.8003082275391
1686388826440616000,145.40861596679687,-0.7398490905761719,1016.7839813232422
1686388827512844000,146.48084399414063,-0.6130180358886719,1016.7687225341797
1686388828585100800,147.55310083007814,-0.5337467193603516,1016.7594909667969
1686388829657370000,148.6253701171875,-0.48090171813964844,1016.7531585693359
1686388830729653000,149.6976530761719,-0.46504783630371094,1016.7513275146484
1686388831801936000,150.76993579101563,-0.46504783630371094,1016.7513275146484
1686388832874251000,151.8422509765625,-0.5231781005859375,1016.7576599121094
1686388833946629000,152.91462915039062,-0.5760250091552734,1016.7643737792969
1686388835018956000,153.9869560546875,-0.6394405364990234,1016.7721557617188
1686388836091307800,155.05930786132814,-0.6817169189453125,1016.7769622802734
1686388837163682000,156.13168212890625,-0.6817169189453125,1016.7769622802734
1686388838235976000,157.20397583007812,-0.6447257995605469,1016.7727661132812
1686388839308271900,158.27627197265625,-0.50732421875,1016.7561340332031
1686388840380606000,159.34860595703125,-0.412200927734375,1016.7445373535156
1686388841452919000,160.4209189453125,-0.37520790100097656,1016.7401123046875
1686388842525274000,161.49327416992188,-0.37520790100097656,1016.7401123046875
1686388843597639200,162.56563916015625,-0.47033119201660156,1016.7519378662109
1686388844669976000,163.63797607421876,-0.6447257995605469,1016.7726135253906
1686388845742238000,164.71023803710938,-0.7715568542480469,1016.7878723144531
1686388846814529000,165.78252905273436,-0.7715568542480469,1016.7878723144531
1686388847886826000,166.85482592773437,-0.7398490905761719,1016.7839813232422
1686388848959117000,167.92711694335938,-0.6447257995605469,1016.7728424072266
1686388850031379000,168.99937890625,-0.5126094818115234,1016.7569732666016
1686388851103671000,170.0716711425781,-0.38577842712402344,1016.7416381835938
1686388852175960000,171.1439599609375,-0.35935401916503906,1016.7384338378906
1686388853248253200,172.21625317382814,-0.3329315185546875,1016.7351531982422
1686388854320547000,173.28854711914062,-0.32764625549316406,1016.7346954345703
1686388855392812000,174.36081201171876,-0.3329315185546875,1016.7351531982422
1686388856465070800,175.43307080078125,-0.34350013732910156,1016.7363739013672
1686388857537358000,176.50535815429689,-0.348785400390625,1016.7366027832031
1686388858609610000,177.57760986328125,-0.35407066345214844,1016.7378997802734
1686388859681812000,178.64981201171875,-0.35407066345214844,1016.7378997802734
1686388860754129000,179.72212890625,-0.3646392822265625,1016.7387390136719
1686388861826346800,180.7943466796875,-0.3646392822265625,1016.7387390136719
1686388862898560000,181.86656005859376,-0.34350013732910156,1016.7362976074219
1686388863970783000,182.93878295898438,-0.30650901794433594,1016.7315673828125
1686388865042975000,184.01097509765626,-0.29593849182128906,1016.7308807373047
1686388866115173000,185.08317309570313,-0.29593849182128906,1016.7308807373047
1686388867187361000,186.1553610839844,-0.29593849182128906,1016.7308807373047
1686388868259556000,187.22755615234374,-0.30650901794433594,1016.7318725585938
1686388869331708000,188.2997080078125,-0.30650901794433594,1016.7318725585938
1686388870403853000,189.37185302734375,-0.35407066345214844,1016.7378997802734
1686388871476044000,190.4440439453125,-0.35407066345214844,1016.7378997802734
1686388872548225800,191.51622583007813,-0.24837684631347656,1016.7250061035156
1686388873620375000,192.588375,-0.24837684631347656,1016.7250061035156
1686388874692580900,193.66058081054686,-0.24837684631347656,1016.7246246337891
1686388875764802000,194.73280200195313,-0.24309158325195312,1016.7243194580078
1686388876837064000,195.80506396484375,-0.15325355529785156,1016.7131805419922
1686388877909326000,196.877326171875,-0.15325355529785156,1016.7131805419922
1686388878981578000,197.94957788085938,-0.15325355529785156,1016.7131805419922
1686388880053804000,199.02180395507813,-0.08455276489257812,1016.7049407958984
1686388881126068000,200.09406787109376,-0.08455276489257812,1016.7049407958984
1686388882198304800,201.1663046875,-0.0792694091796875,1016.7046356201172
1686388883270468900,202.23846875,-0.0792694091796875,1016.7046356201172
1686388884342618000,203.3106181640625,-0.06869888305664062,1016.7030334472656
1686388885414781200,204.38278125,-0.06869888305664062,1016.7030334472656
1686388886486994000,205.45499389648438,-0.10569190979003906,1016.7075347900391
1686388887559195100,206.52719506835936,-0.10569190979003906,1016.7075347900391
1686388888631396000,207.59939599609376,-0.10569190979003906,1016.7075347900391
1686388889703622100,208.6716220703125,-0.16910743713378906,1016.7151641845703
1686388890775859000,209.74385888671875,-0.16910743713378906,1016.7151641845703
1686388891848070000,210.81606982421874,-0.16910743713378906,1016.7151641845703
1686388892920281900,211.88828173828125,-0.29065513610839844,1016.7300415039062
1686388893992449000,212.96044897460936,-0.29065513610839844,1016.7300415039062
1686388895064548900,214.032548828125,-0.285369873046875,1016.7293548583984
1686388896136704000,215.1047041015625,-0.285369873046875,1016.7293548583984
1686388897208873000,216.176873046875,-0.26423072814941406,1016.7266845703125
1686388898281051000,217.24905078125,-0.21666908264160156,1016.7209625244141
1686388899353260000,218.32126000976564,-0.21666908264160156,1016.7209625244141
1686388900425372000,219.3933718261719,-0.19024658203125,1016.7179870605469
1686388901497504000,220.46550390625,-0.19024658203125,1016.7179870605469
1686388902569741000,221.5377409667969,-0.19024658203125,1016.7179870605469
1686388903641952000,222.60995190429688,-0.15325355529785156,1016.7132568359375
1686388904714164000,223.6821640625,-0.1268310546875,1016.7104339599609
1686388905786431000,224.75443090820312,-0.0475616455078125,1016.7005157470703
1686388906858686000,225.82668603515626,-0.026422500610351562,1016.6983032226562
1686388907930893000,226.89889306640626,0.03699302673339844,1016.6905212402344
1686388909003102000,227.97110205078124,0.15325546264648438,1016.6764068603516
1686388910075283000,229.04328295898438,0.20081710815429688,1016.6704559326172
1686388911147476000,230.11547607421875,0.21667098999023438,1016.6691589355469
1686388912219675100,231.1876750488281,0.3276481628417969,1016.6553497314453
1686388913291899000,232.25989892578124,0.4280567169189453,1016.6432952880859
1686388914364092000,233.332091796875,0.4439105987548828,1016.6414642333984
1686388915436325000,234.4043251953125,0.5178947448730469,1016.6323852539062
1686388916508539000,235.4765388183594,0.6605815887451172,1016.6151428222656
1686388917580698000,236.54869799804686,0.6922893524169922,1016.6119384765625
1686388918652812000,237.62081201171875,0.7504196166992188,1016.6043090820312
1686388919724910000,238.69291015625,0.8455429077148438,1016.593017578125
1686388920797013000,239.76501293945313,0.9406661987304688,1016.5818023681641
1686388921869148000,240.83714794921875,1.0305061340332031,1016.5705871582031
1686388922941262000,241.90926196289064,1.115060806274414,1016.5609741210938
1686388924013292000,242.9812919921875,1.1626224517822266,1016.5546417236328
1686388925085315000,244.05331518554686,1.2048988342285156,1016.5496826171875
1686388926157376000,245.1253759765625,1.2788829803466797,1016.5408325195312
1686388927229472000,246.19747192382812,1.3158760070800781,1016.5366363525391
1686388928301528000,247.26952807617187,1.3158760070800781,1016.5366363525391
1686388929373573000,248.34157299804687,1.3158760070800781,1016.5366363525391
1686388930445657000,249.41365698242188,1.3845767974853516,1016.5281677246094
1686388931517751800,250.48575170898437,1.495553970336914,1016.514892578125
1686388932589802000,251.55780200195312,1.6593780517578125,1016.4952850341797
1686388933661811000,252.62981103515625,1.9236106872558594,1016.4630889892578
1686388934733814000,253.70181396484375,2.1878414154052734,1016.4317321777344
1686388935805847000,254.77384692382813,2.3886585235595703,1016.4070892333984
1686388936877887000,255.84588696289063,2.531343460083008,1016.3899993896484
1686388937949950000,256.91794995117186,2.5789051055908203,1016.3843536376953
1686388939022036000,257.99003588867185,2.594758987426758,1016.3822174072266
1686388940094070800,259.06207080078127,2.6793136596679688,1016.3723754882812
1686388941166112000,260.1341120605469,2.7374439239501953,1016.3649749755859
1686388942238217000,261.20621704101563,2.8272838592529297,1016.3546752929688
1686388943310307000,262.27830712890625,2.874845504760742,1016.3489532470703
1686388944382457000,263.35045703125,2.874845504760742,1016.3489532470703
1686388945454570000,264.4225700683594,2.8537063598632812,1016.351318359375
1686388946526666000,265.494666015625,2.811429977416992,1016.3561248779297
1686388947598708000,266.5667080078125,2.811429977416992,1016.3561248779297
1686388948670761200,267.63876123046873,2.9171218872070312,1016.3439178466797
1686388949742879000,268.71087890625,3.022815704345703,1016.3308715820312
1686388950814925800,269.78292578125,3.1126537322998047,1016.3198089599609
1686388951887038000,270.8550378417969,3.117938995361328,1016.3197326660156
1686388952959125000,271.927125,3.117938995361328,1016.3197326660156
1686388954031166000,272.999166015625,3.065092086791992,1016.3259124755859
1686388955103219000,274.0712189941406,2.9593982696533203,1016.3386535644531
1686388956175312100,275.14331201171876,2.8642749786376953,1016.3498687744141
1686388957247369000,276.2153688964844,2.816713333129883,1016.3558959960938
1686388958319482000,277.2874821777344,2.7374439239501953,1016.3650512695312
